DENSITY,DENSITY,count_target,count_deidentified
0,0.0,0,282
1,1.0,0,32
2,2.0,0,32
3,3.0,0,50
4,4.0,0,108
5,5.0,0,174
6,6.0,0,316
7,2646.76,0,700
8,4065.16,2030,1121
9,6243.68,0,646
10,9589.66,2425,1129
11,14728.75,0,445
12,22621.88,0,416
13,34744.92,963,612
